Time,Altitude,Vertical Velocity,Horizontal Velocity,Total Velocity,Drag,Displacement
0.7200000000157161,91.28328647988383,4.369269420022947,0.02043708796350359,4.141820834722757,536.7459639465021,0.0043786034715347765
0.9200000000200816,92.24376259755809,5.280598842065964,0.02105865523438898,5.280640832113909,889.0966274937355,0.006273953987589271
1.0600000000231375,93.05180292739533,6.079750527354698,0.008401380859994995,6.07975633212961,1176.077815034429,0.007808566042176989
1.22000000002663,94.11245844501536,7.1096671134870055,0.014452796144822118,6.995107580182755,1581.7151061440409,0.008878851257315887
1.400000000030559,95.48100313486066,8.027226950871016,0.03962550165154714,8.027301700018391,2085.1111174781486,0.01250564442428081
1.5600000000340515,96.8536597158527,8.94688067756976,0.06722720043031857,8.947115296283618,2624.610860656478,0.019756024009706025
1.720000000037544,98.37367320549674,9.983965837273995,0.03317751582055846,9.868781474543827,3195.2115568751883,0.02820834302932219
1.900000000041473,100.26016161125153,11.023320571809466,0.03146978473875899,10.907686671101159,3911.288188647941,0.027738717473160167
2.120000000046275,102.82030707679223,12.296652635880196,0.058681552157207835,12.180964196911878,4879.83708212894,0.03088940039217884
2.3200000000506407,105.39102127205115,13.457200993137883,0.13658221474619128,13.341785618408165,6007.565078945358,0.0512473691177697
2.5200000000550062,108.1941834455356,14.620828022893754,0.01389282766686445,14.504403911911183,6903.395089186662,0.06513488420796988
2.720000000059372,111.23035517451353,15.787621226913632,0.03728064712382424,15.670856227010871,8234.90531598697,0.06255008424556424
2.9200000000637374,114.50015887035988,16.95723919892696,0.11704560930351983,16.840446432278917,9266.287233728222,0.07589621775321431
3.120000000068103,118.0042168109212,18.1304171947468,0.10907489826871265,18.013348180882243,10888.077290470677,0.10234936738197928
3.3200000000724685,121.74321123422123,19.306872765136376,0.02532194617211542,19.18905803254559,12000.067644757777,0.11115357141250427
3.5000000000763976,125.30972898530308,20.48621804239767,0.08604274448354188,20.36827798971038,13645.817957655105,0.11596517193694242
3.7200000000811997,129.9285434356425,21.787360209633274,0.17977687602557077,21.551059000667525,15347.30082120456,0.14168812515310192
3.9200000000855653,134.37612795375753,23.092213041767828,0.030518685458627227,22.736052942905612,16869.507793972247,0.16546212864418441
4.1800000000912405,140.51317647576798,24.758931415420978,0.1280504599342259,24.40160739850683,19407.348483599057,0.17891895272216646
4.460000000097352,147.57273683906533,26.791137943930945,0.06872805070797253,26.19313131288371,22615.304343850534,0.22646820177451255
4.88000000010652,159.04176793328952,29.554054344001823,0.22647520481275002,28.832258098489845,26774.172349089127,0.2660274357642173
5.320000000116124,172.19439836614765,32.21242075819483,0.10011064665962918,31.365153087350127,31884.38372027876,0.3292738698133777
5.740000000125292,185.8409087259788,34.27628575875949,0.2037838730693897,33.79067669010895,36936.8163473243,0.38442916313106185
6.0800000001327135,198.39093557558954,36.961154952826085,0.17796622902358586,36.22795413198391,41804.935022457474,0.44023491805079595
6.540000000142754,215.57929386920296,39.292097255789855,0.12378519711844359,38.80114977772555,47521.612661479056,0.5188419318224273
6.900000000150612,229.11863666714635,41.510232166956015,0.2510421148606888,40.893787153009825,52252.58018966272,0.5662300815529567
7.3000000001593435,245.96008769818582,44.3576480609696,0.10464015455650076,43.48959287551113,58776.0668110998,0.6608623811741365
7.700000000168075,264.71036791987717,46.72071194356381,0.2867558182217382,46.09860613656466,65740.80933392172,0.7387374401130261
8.120000000177242,284.55865087907296,49.34649564477452,0.22471650146012376,48.72065465975375,72364.56077728247,0.8175768899026875
8.500000000185537,303.4676621319959,51.607506657784725,0.261635867437257,50.97966373640923,79657.69143202323,0.9214079111463505
8.880000000193832,322.218789804494,54.130920765091666,0.33853703718347633,53.500083165625796,86223.50539820889,1.016338112643216
9.360000000204309,349.61981478356756,57.173134667192016,0.21347139700135767,56.53858525604753,95619.57825817697,1.1692485205351282
9.740000000212603,370.3303006555652,59.46375030363482,0.4318309836981105,58.70039039128544,102525.9941949056,1.2721898778556904
10.100000000220462,391.8660626943456,61.63739274370014,0.27890731740929325,60.99757484727044,110186.67233304727,1.4067028614937236
10.480000000228756,416.767081230646,64.33267702731706,0.43571480408876306,63.56254930215101,119493.30773787058,1.5653811538515552
10.900000000237924,442.69603255589027,66.78299567493488,0.42927020417320555,66.1382944834613,127550.84301969387,1.7120776856924687
11.280000000246218,468.2848389953142,69.24231486305905,0.4361627099489114,68.72559785339209,137195.39493149598,1.8835199983170747
11.68000000025495,497.65564208640717,72.10085089446629,0.5692340210602646,71.45177157737352,146316.883426189,2.0818321816313063
12.08000000026368,526.6942455269163,74.71128732918096,0.40217386227611135,74.05888040197908,156946.0222718844,2.2940990361719455
12.440000000271539,552.198500153143,76.93818912806434,0.6255350188156792,76.4154081187816,165466.21231343734,2.4555403889859693
12.84000000028027,584.7499751469586,79.56973206552928,0.4923756736911112,79.04352140410167,175689.57119593743,2.6784142171095318
13.240000000289001,616.8311910408083,82.34340028070656,0.6060078091571387,81.55192990262435,186800.03593207838,2.9230483312534696
13.640000000297732,649.9700823494932,84.59717176654256,0.6032907859907899,84.20079871882868,196497.22817163134,3.1266036253684275
13.94000000030428,675.520705326111,86.85796578743421,0.6531705474114959,86.19507481367336,206218.37478898963,3.329591942080258
14.380000000313885,714.0788205887657,89.79527716152526,0.7173845533306084,89.26263233296663,216683.4284342218,3.6251190062488763
14.740000000321743,746.5884995298693,92.20814527122187,0.6335904964823779,91.53969349483307,226677.60349531053,3.8851864369589157
15.080000000329164,776.2156863890123,94.49469189615871,0.7829530500963279,93.95864301204496,235755.2252871573,4.088948085190471
15.460000000337459,814.2187824060675,97.19450544609643,0.6651430272149532,96.38619406323566,247594.26417110933,4.391437125081646
15.900000000347063,855.2851349972188,100.17557961964863,0.8398583484627726,99.364670760892,261222.42343122387,4.701941534425653
16.32000000035623,897.5476629520999,101.94386475730997,0.7152072350269514,101.94637356495689,272577.97357874067,4.956420831098939
16.480000000359723,913.9633809697116,103.03363266137336,0.7822692138264032,103.03660225629397,275941.51341345516,5.073675820046237
16.660000000363652,932.6396915750811,104.2616120547065,0.9000752618847905,104.26549709143086,282914.20703140734,5.226596884444076
16.820000000367145,949.4265657481737,105.35520779597417,0.8622190221867702,105.35873590440954,286891.7508861911,5.370280892856681
17.000000000371074,968.5212114297319,106.58741067538071,0.7596272287586753,106.59014425519882,293723.9919071878,5.51407978149621
17.180000000375003,987.8378419330111,107.8212876190551,0.8288057792397661,107.8244730237561,297222.10839877755,5.653166799545175
17.340000000378495,1005.1947704334743,109.05722536662805,0.9391551483375381,108.92377742096551,303574.13653739676,5.795083262220847
17.520000000382424,1024.93163747387,110.29578882627479,0.8853121429226624,110.16169836128115,308298.5656251481,5.9803047685157855
17.72000000038679,1047.1232778765261,111.6744241604328,0.8226613105840352,111.53945343172425,315523.0630106706,6.129334946055375
17.920000000391155,1069.59076953365,113.05519422586553,0.9551270207689639,112.92090239615251,320672.3894393296,6.303035326622808
18.100000000395084,1090.047898866469,114.30024167801149,1.0129110273559945,114.16627659061817,328174.06526639545,6.501926081746523
18.280000000399014,1110.7293801871128,115.68653942403279,0.9078632669115461,115.41278188669193,333561.0820593838,6.6756915342677745
18.48000000040338,1133.972328203381,116.93618818169789,0.9470901322779465,116.80088154798581,339062.9980704246,6.8361247232672
18.660000000407308,1155.128616923932,118.46602863377495,1.0692996917392459,118.19225305357102,346368.3071337429,7.055549129681659
18.900000000412547,1183.6877526588505,119.99951655966609,0.9781755902481314,119.72479380507124,353754.070516071,7.285199334089942
19.12000000041735,1210.219825931359,121.53520497602257,0.9794010885774519,121.39907354480786,360993.295683358,7.509685895798344
19.40000000042346,1244.4771426885854,123.77479639822337,1.0902824591974036,123.35915139481376,371238.0119501039,7.8019622142751
19.70000000043001,1284.300932676997,126.30284438413108,0.9923973287024035,125.74394711614666,382414.8873836032,8.164544579486398
20.080000000438304,1329.9629309683805,129.12246979318874,1.062920971100844,128.1392035034565,393186.9277444485,8.54886371344225
20.50000000044747,1384.3908737374004,132.09461272929977,1.1638433285878471,131.3904523035812,405838.6231821286,9.012246811015993
20.940000000457076,1445.4360309223412,135.22155019378923,1.043138966835907,134.51461496059935,423702.8788501374,9.533358745675034
21.340000000465807,1496.9994336217642,137.78860760430453,1.2117886063603474,137.22242565371087,434136.7754226523,9.931358101233142
21.68000000047323,1544.0084842196666,140.2215553413883,1.0679038162616528,139.65253319513374,447384.9901753325,10.338138953568357
22.02000000048065,1591.845304673072,142.95126199225044,1.2201731847706592,142.09292034011136,455688.6337176974,10.718513816705523
22.460000000490254,1657.8885868986836,146.12485418270455,1.2002211313151583,145.40642524003167,470480.64472008595,11.22032785328147
22.860000000498985,1713.5981242052512,147.86240043491958,1.2456884520040459,147.8676475842365,481307.78087896196,11.577957585384556
23.020000000502478,1737.3677978117485,149.16804456365549,1.1338872234170916,149.02741729393628,488469.7800386735,11.79076868490447
23.160000000505534,1758.3185651096283,150.03889267908613,1.093539644125457,150.04287768941117,492571.6739776878,11.921663200488833
23.320000000509026,1782.4366998178884,151.34783384024644,1.1895593927776305,151.20684403799987,496047.97150015,12.098971441965878
23.48000000051252,1806.7412027214887,152.36781214725582,1.2493870284131536,152.37293442894708,501324.0314523948,12.292319520375496
23.620000000515574,1828.1607085958822,153.5355333867845,1.173677455188965,153.39414433827827,506384.4799831899,12.485619883684409
23.780000000519067,1852.8153893842828,154.7044817149868,1.0592110322404262,154.5619637949814,512566.0769801967,12.660497271308284
23.980000000523432,1883.8970715553733,156.16897445783187,1.1629674313045557,156.02658729168581,515140.0090001242,12.87642926753959
24.180000000527798,1915.2721704901196,157.49055201738824,1.2505358174857233,157.4955440184796,521542.1997617699,13.090952462114993
24.360000000531727,1943.7611458702013,158.96177418506116,1.1595972198594944,158.8189461895108,528571.2826292875,13.330787392609702
24.560000000536093,1975.6952463382622,160.4356143343644,1.134846596731403,160.29198064762073,533487.3112023892,13.549527035094068
24.760000000540458,2007.9244443328353,161.9129819125825,1.2629888687036883,161.76988519079913,539576.2258758297,13.784166577890424
24.92000000054395,2033.920762212365,163.2463378168623,1.244700575578564,162.95471132250836,544587.967848624,13.983438954706696
25.120000000548316,2066.683057648479,164.87691192985244,1.124332219608859,164.58417962247503,554587.4122740831,14.23837091189431
25.400000000554428,2113.0487350337207,166.80926172115917,1.2629479182265175,166.51619629453216,561221.3612433014,14.532897667222056
25.62000000055923,2149.888191906968,168.44953454700777,1.2205526800088542,168.1557990820358,567097.5253689896,14.804743905699251
25.840000000564032,2187.0886683725985,170.3912738776646,1.1309078747432744,169.9462242144564,576465.2583759244,15.071541792482702
26.08000000056927,2228.0837633630726,172.18986645457053,1.2906737876178898,171.7441521296568,581329.7447107153,15.342418772221034
26.340000000574946,2276.457250341424,174.44481094985966,1.1566123217687794,173.9977798265525,592293.6165638022,15.707200538687527
26.640000000581495,2328.940491534653,176.85750331477823,1.2887597488213511,176.10669714636936,599287.2910453421,16.06268034211977
26.980000000588916,2389.2425212494563,179.88583794582752,1.143473416031465,178.83017246604425,614675.4175038267,16.54240087539457
27.42000000059852,2468.580221263808,182.46853776974362,1.2986436958043361,182.01635251492786,624628.7265065736,16.942375946756563
27.740000000605505,2523.518204486114,185.06175090055982,1.1107089942688047,184.30254472194537,636297.3064161774,17.313591403800412
28.140000000614236,2601.5856677878182,188.58725586782938,1.2808777385121557,187.6696626244987,646310.2767445951,17.842290244739903
28.58000000062384,2681.006383926724,191.6666534630701,1.2589038760662379,190.89868810111884,658696.0649306262,18.25341318637031
28.900000000630826,2746.294732442242,194.45323342777297,1.1951003175487744,193.52763069937146,668204.8754937886,18.642350778854603
29.34000000064043,2832.114176674746,197.55756438519396,1.3214988072764589,196.938990599415,681908.3229015283,19.103699413526314
29.720000000648724,2903.449087374611,200.67862474953247,1.1576498295628428,199.7456679892139,693874.1878686766,19.480556629059794
30.140000000657892,2992.010556054651,204.28625320236785,1.3198546783703968,203.34699927498633,705406.5043384621,19.966584864447665
30.640000000668806,3090.356291542412,208.07026427672002,1.4030240201811968,206.96759301009087,718464.1358646163,20.454630273954802
31.060000000677974,3177.9001200784696,210.92485280625394,1.286085799880191,210.29478514164475,731254.8467696379,20.86197396880291
31.38000000068496,3245.5390706714243,213.62779296594238,1.440890591181285,212.83525010973332,739994.7932522586,21.186426100707898
31.740000000692817,3326.9189611173933,216.82417495355318,1.318847181142306,215.86923785443943,754019.5950598243,21.57815042047377
32.14000000070155,3413.8292855485342,219.71366340460835,1.5182573553534475,218.75327164983574,761799.928672147,21.928974875630544
32.500000000709406,3493.147730077966,223.10043313142168,1.500929578597305,222.2977152509396,776457.9326984866,22.342820804953057
32.94000000071901,3591.513041849248,226.3466189003712,1.51466225453149,225.3761743333528,782455.7012642544,22.7128660265432
33.36000000072818,3682.2998199113645,229.43858091471506,1.6361880822504073,228.79102301814376,796029.0564597453,23.106165675630745
33.7000000007356,3765.122430675081,232.71318133137098,1.5894689118034766,231.73572512653448,806056.4646369014,23.484752065978352
34.140000000745204,3867.7916396160144,236.6601049634246,1.7745217113758593,235.34676042849924,818448.9475302971,23.880071830715718
34.64000000075612,3981.6122038183967,238.97372618982766,1.759974289312956,238.98020695980193,832699.1494971509,24.23389683456933
34.80000000075961,4019.975595265394,240.2990056578347,1.8659211547814236,240.30615098966243,831869.3676885046,24.374074402175488
34.9600000007631,4058.551528842305,241.62897344519155,1.925756636194186,241.63664735879559,836210.7717938422,24.530400515766363
35.14000000076703,4102.204314178089,243.29687587109024,1.868468602844188,243.13725854154666,840498.7846483255,24.718430319800305
35.32000000077096,4146.12727261032,244.79633723934327,1.8980076994496011,244.63682103658329,851906.1220210522,24.910628248557536
35.520000000775326,4195.24736717646,246.46742946704555,2.008917371042611,246.30803752237296,852251.1378940046,25.076642684651574
35.700000000779255,4239.741788794519,247.97711524883292,2.0339535073668675,247.81758471309314,858780.9243738815,25.2847394021097
35.880000000783184,4284.5083019292215,249.65761840824422,1.9882607916689792,249.49755645233154,867789.9451291809,25.470741604666582
36.04000000078668,4324.529205934377,250.83286742207815,2.0754881880143583,250.67304099372242,872982.0422607039,25.6179291945079
36.24000000079104,4374.8580727343215,252.51890773841134,2.1986480265549138,252.35945772286516,873403.0735638387,25.810236053978528
36.44000000079541,4425.524860469042,254.38129357949376,2.1948067790462105,254.05186877117663,878211.6494468078,26.050271064847642
36.66000000080021,4481.649676799541,256.58327556976155,2.318799131502443,256.08468462115223,889628.7399366165,26.294629109415492
37.02000000080807,4574.3762009246275,260.5081547435308,2.3723779585458478,259.4924925065522,893115.6312946427,26.750043479713334
37.440000000817236,4683.955829410232,263.9316860003529,2.6003933812873887,262.9130799267083,906394.4509899948,27.18780039666938
37.900000000827276,4816.379881047993,268.4109726565093,2.740827065545556,267.2178550143024,925303.2115100581,27.80954084829448
38.380000000837754,4940.113641405478,272.2278380675607,2.831151372406094,271.1987716740276,930821.6713359723,28.416467418287095
38.840000000847795,5065.683504071203,275.7106427103665,3.077836668553778,275.0276873825063,939830.7012908825,28.909045911922686
39.180000000855216,5159.682647772017,278.5190284087258,3.0704990143947253,277.83318628824964,947057.5852554602,29.38195895376502
39.540000000863074,5260.316469441052,282.0296224835149,3.3214400904886703,281.1683119663818,965249.2395487122,29.97477338308357
39.84000000086962,5339.374580963398,284.1441785122453,3.311191449671878,283.6351864820012,984424.9103850271,30.407566107615796
40.120000000875734,5419.122798796976,287.1251462285648,3.57280943538769,286.0940397269795,1015500.8004404076,30.893074351733173
40.50000000088403,5534.241511618951,290.63030551593755,3.65805101717668,289.6044823109854,1054270.6291793622,31.623010035283926
40.86000000089189,5639.0451128453715,293.4100362572996,3.9087932379084935,292.7402806267447,1103428.0647160725,32.25804557602251
41.220000000899745,5744.974319091998,296.8663065530431,3.9978296616735767,296.0339955093564,1161157.455049199,33.101560535406705
41.66000000090935,5869.968584591872,300.1032851541166,4.2301364754474235,299.623125129883,1239172.3808574234,33.98794761331006
42.02000000091721,5978.300767159904,303.63140734788385,4.4355381498595845,302.8301846535198,1329394.0040745286,34.95596730459671
42.440000000926375,6106.059184925165,307.26714145213157,4.534859769568543,306.3143199243132,1407482.9124313884,36.053767400415076
42.840000000935106,6229.08599972981,310.1824807306339,4.86806566760032,309.4120748363939,1490074.9687483364,37.048284668131956
43.260000000944274,6365.910556991585,313.8585156207931,4.999660448462194,312.94818550565856,1577715.7223298303,38.45479052709328
43.68000000095344,6491.63400016434,316.98929784318915,5.226796672144437,316.0959082276422,1659846.1683352492,39.75883889824963
44.10000000096261,6631.37400894321,320.06576407804477,5.45004325086656,319.50180752709974,1757732.079275319,41.23064549496427
44.46000000097047,6746.810693430714,323.24612937284036,5.55439575576859,322.38905615999096,1823379.805267086,42.73702494223646
44.880000000979635,6876.221853544586,326.2175100914012,5.888863672602809,325.37930886568546,1898738.8231773097,44.31419093611327
45.340000000989676,7026.514001927106,329.3116981158181,6.007341544837933,328.63469424958123,1957394.8463169306,46.107603556379615
45.72000000099797,7158.466460012831,332.222125569826,6.2434963133962995,331.5525407258185,2011758.4019642537,48.090745703276255
46.1200000010067,7291.583643616294,335.2574062662899,6.534397515343815,334.5999552787068,2067973.5775088102,49.990100831519044
46.58000000101674,7446.0964403724065,338.2911512536492,6.619247398885312,337.6317002264914,2087809.801538204,52.01080760908727
46.98000000102547,7581.69660573022,341.7574667976342,6.9803223197708855,340.80918120146526,2100901.67192228,54.43465872490854
47.46000000103595,7739.069112992962,343.65835115905753,7.004006038941612,343.7297171062689,2111491.5598167744,56.33799492026749
